[Measurement conditions],
Sample identification,
Comment - 1,"Configuration=Refl Transm Spinner PW3064/60, Owner=User-1, Creation date=10/4/2011 2:53:33 PM"
Comment - 2,Goniometer=PW3050/60 (Theta/Theta); Minimum step size 2Theta:0.001; Minimum step size Omega:0.001
Comment - 3,Sample stage=Reflection-Transmission Spinner PW3064/60; Minimum step size Phi:0.1
Comment - 4,Diffractometer system=XPERT-PRO
Comment - 5,"Measurement program=C:\PANalytical\Data Collector\Programs\FabioD\20-90_0.026_60s_1D.xrdmp, Identifier={75D2FDBE-8ECF-4DAD-B4A8-7F413C6B3A22}"
Comment - 6,Fine Calibration Offset for 2Theta = -0.049 deg
Anode material,Cu
K-Alpha1 wavelength,1.540598
K-Alpha2 wavelength,1.544426
Ratio K-Alpha2/K-Alpha1,0.5
Divergence slit,Fixed
Monochromator used,NO
Generator voltage,40
Tube current,40
File date and time,7/23/2024 9:54
Unit cell,
h k l, 0 0 0
Scan axis,Gonio
Scan range,20.002
Scan step size,0.0262606
No. of points,2666
Scan type,CONTINUOUS
Phi,0
Time per step,56.865
[Scan points],
Angle,Intensity
20.01513028,862
20.04139085,848
20.06765141,881
20.09391198,856
20.12017254,853
20.14643311,891
20.17269367,876
20.19895424,874
20.2252148,854
20.25147537,891
20.27773593,864
20.3039965,858
20.33025706,868
20.35651763,878
20.38277819,825
20.40903876,854
20.43529932,887
20.46155989,894
20.48782045,895
20.51408102,857
20.54034158,837
20.56660215,866
20.59286271,905
20.61912328,895
20.64538384,929
20.67164441,893
20.69790497,881
20.72416554,849
20.7504261,900
20.77668667,904
20.80294723,839
20.8292078,898
20.85546836,911
20.88172893,899
20.90798949,874
20.93425006,914
20.96051062,888
20.98677119,840
21.01303175,850
21.03929232,827
21.06555288,902
21.09181345,849
21.11807401,847
21.14433458,879
21.17059514,916
21.19685571,874
21.22311627,866
21.24937684,914
21.2756374,947
21.30189797,855
21.32815853,837
21.3544191,873
21.38067966,869
21.40694023,888
21.43320079,880
21.45946136,895
21.48572192,878
21.51198249,857
21.53824305,861
21.56450362,915
21.59076418,857
21.61702475,867
21.64328531,884
21.66954588,859
21.69580644,844
21.72206701,878
21.74832757,849
21.77458814,857
21.8008487,872
21.82710927,904
21.85336983,865
21.8796304,858
21.90589096,854
21.93215153,852
21.95841209,872
21.98467266,876
22.01093322,867
22.03719379,825
22.06345435,835
22.08971492,870
22.11597548,851
22.14223605,811
22.16849661,874
22.19475718,855
22.22101774,863
22.24727831,856
22.27353887,867
22.29979944,822
22.32606,855
22.35232057,934
22.37858113,815
22.4048417,861
22.43110226,837
22.45736283,862
22.48362339,960
22.50988396,874
22.53614452,845
22.56240509,893
22.58866565,925
22.61492622,882
22.64118678,876
22.66744735,895
22.69370791,879
22.71996848,841
22.74622904,850
22.77248961,890
22.79875017,891
22.82501074,852
22.8512713,862
22.87753187,881
22.90379243,851
22.930053,908
22.95631356,813
22.98257413,907
23.00883469,837
23.03509526,913
23.06135582,894
23.08761639,930
23.11387695,887
23.14013752,864
23.16639808,897
23.19265865,884
23.21891921,878
23.24517978,882
23.27144034,841
23.29770091,830
23.32396147,851
23.35022204,860
23.3764826,848
23.40274317,958
23.42900373,896
23.4552643,927
23.48152486,916
23.50778543,870
23.53404599,857
23.56030656,940
23.58656712,848
23.61282769,865
23.63908825,877
23.66534882,863
23.69160938,921
23.71786995,849
23.74413051,896
23.77039108,884
23.79665164,918
23.82291221,877
23.84917277,900
23.87543334,894
23.9016939,864
23.92795447,882
23.95421503,889
23.9804756,921
24.00673616,857
24.03299673,878
24.05925729,874
24.08551786,849
24.11177842,848
24.13803899,951
24.16429955,880
24.19056012,877
24.21682068,907
24.24308125,911
24.26934181,896
24.29560238,869
24.32186294,937
24.34812351,870
24.37438407,952
24.40064464,897
24.4269052,891
24.45316577,888
24.47942633,959
24.5056869,849
24.53194746,891
24.55820803,867
24.58446859,856
24.61072916,890
24.63698972,859
24.66325029,917
24.68951085,863
24.71577142,895
24.74203198,896
24.76829255,934
24.79455311,908
24.82081368,882
24.84707424,918
24.87333481,919
24.89959537,920
24.92585594,861
24.9521165,860
24.97837707,887
25.00463763,913
25.0308982,878
25.05715876,899
25.08341933,830
25.10967989,864
25.13594046,943
25.16220102,899
25.18846159,837
25.21472215,883
25.24098272,936
25.26724328,917
25.29350385,849
25.31976441,889
25.34602498,880
25.37228554,885
25.39854611,858
25.42480667,921
25.45106724,845
25.4773278,915
25.50358837,928
25.52984893,916
25.5561095,950
25.58237006,874
25.60863063,876
25.63489119,920
25.66115176,893
25.68741232,874
25.71367289,884
25.73993345,918
25.76619402,854
25.79245458,904
25.81871515,918
25.84497571,858
25.87123628,892
25.89749684,929
25.92375741,899
25.95001797,886
25.97627854,878
26.0025391,894
26.02879967,906
26.05506023,852
26.0813208,901
26.10758136,876
26.13384193,879
26.16010249,873
26.18636306,929
26.21262362,839
26.23888419,886
26.26514475,849
26.29140532,925
26.31766588,913
26.34392645,925
26.37018701,895
26.39644758,893
26.42270814,959
26.44896871,947
26.47522927,911
26.50148984,922
26.5277504,910
26.55401097,951
26.58027153,901
26.6065321,873
26.63279266,884
26.65905323,911
26.68531379,864
26.71157436,935
26.73783492,893
26.76409549,936
26.79035605,925
26.81661662,885
26.84287718,868
26.86913775,911
26.89539831,901
26.92165888,942
26.94791944,902
26.97418001,884
27.00044057,915
27.02670114,874
27.0529617,847
27.07922227,937
27.10548283,898
27.1317434,857
27.15800396,959
27.18426453,910
27.21052509,849
27.23678566,869
27.26304622,851
27.28930679,924
27.31556735,928
27.34182792,901
27.36808848,857
27.39434905,918
27.42060961,920
27.44687018,914
27.47313074,896
27.49939131,918
27.52565187,882
27.55191244,928
27.578173,876
27.60443357,947
27.63069413,949
27.6569547,873
27.68321526,912
27.70947583,933
27.73573639,944
27.76199696,929
27.78825752,866
27.81451809,890
27.84077865,975
27.86703922,906
27.89329978,921
27.91956035,915
27.94582091,1009
27.97208148,947
27.99834204,914
28.02460261,985
28.05086317,893
28.07712374,910
28.1033843,920
28.12964487,931
28.15590543,877
28.182166,923
28.20842656,889
28.23468713,878
28.26094769,940
28.28720826,940
28.31346882,905
28.33972939,894
28.36598995,898
28.39225052,946
28.41851108,898
28.44477165,975
28.47103221,924
28.49729278,907
28.52355334,917
28.54981391,899
28.57607447,981
28.60233504,892
28.6285956,860
28.65485617,912
28.68111673,951
28.7073773,923
28.73363786,914
28.75989843,892
28.78615899,901
28.81241956,963
28.83868012,922
28.86494069,935
28.89120125,840
28.91746182,968
28.94372238,906
28.96998295,914
28.99624351,969
29.02250408,927
29.04876464,953
29.07502521,927
29.10128577,919
29.12754634,937
29.1538069,920
29.18006747,913
29.20632803,923
29.2325886,940
29.25884916,892
29.28510973,874
29.31137029,956
29.33763086,928
29.36389142,922
29.39015199,963
29.41641255,920
29.44267312,946
29.46893368,942
29.49519425,927
29.52145481,931
29.54771538,883
29.57397594,941
29.60023651,961
29.62649707,905
29.65275764,928
29.6790182,916
29.70527877,960
29.73153933,982
29.7577999,982
29.78406046,936
29.81032103,901
29.83658159,964
29.86284216,977
29.88910272,935
29.91536329,939
29.94162385,940
29.96788442,952
29.99414498,971
30.02040555,968
30.04666611,1004
30.07292668,951
30.09918724,981
30.12544781,929
30.15170837,928
30.17796894,924
30.2042295,945
30.23049007,924
30.25675063,942
30.2830112,980
30.30927176,939
30.33553233,926
30.36179289,935
30.38805346,908
30.41431402,997
30.44057459,955
30.46683515,941
30.49309572,990
30.51935628,903
30.54561685,900
30.57187741,915
30.59813798,959
30.62439854,946
30.65065911,927
30.67691967,970
30.70318024,954
30.7294408,957
30.75570137,962
30.78196193,942
30.8082225,927
30.83448306,930
30.86074363,868
30.88700419,945
30.91326476,910
30.93952532,942
30.96578589,934
30.99204645,915
31.01830702,925
31.04456758,985
31.07082815,949
31.09708871,956
31.12334928,951
31.14960984,962
31.17587041,874
31.20213097,944
31.22839154,903
31.2546521,970
31.28091267,886
31.30717323,949
31.3334338,986
31.35969436,964
31.38595493,919
31.41221549,984
31.43847606,937
31.46473662,963
31.49099719,926
31.51725775,932
31.54351832,996
31.56977888,960
31.59603945,982
31.62230001,1009
31.64856058,999
31.67482114,975
31.70108171,971
31.72734227,961
31.75360284,980
31.7798634,1085
31.80612397,966
31.83238453,969
31.8586451,1012
31.88490566,996
31.91116623,961
31.93742679,994
31.96368736,1078
31.98994792,1042
32.01620849,959
32.04246905,977
32.06872962,1113
32.09499018,1066
32.12125075,1056
32.14751131,1097
32.17377188,1022
32.20003244,1127
32.22629301,1180
32.25255357,1167
32.27881414,1056
32.3050747,1129
32.33133527,1190
32.35759583,1176
32.3838564,1163
32.41011696,1238
32.43637753,1292
32.46263809,1189
32.48889866,1203
32.51515922,1250
32.54141979,1182
32.56768035,1154
32.59394092,1167
32.62020149,1207
32.64646205,1114
32.67272262,1150
32.69898318,1108
32.72524375,1101
32.75150431,1054
32.77776488,1051
32.80402544,1033
32.83028601,986
32.85654657,1083
32.88280714,1000
32.9090677,1005
32.93532827,1057
32.96158883,949
32.9878494,1029
33.01410996,956
33.04037053,1043
33.06663109,979
33.09289166,974
33.11915222,1041
33.14541279,988
33.17167335,1007
33.19793392,943
33.22419448,1020
33.25045505,978
33.27671561,1051
33.30297618,1008
33.32923674,957
33.35549731,979
33.38175787,1070
33.40801844,917
33.434279,1020
33.46053957,987
33.48680013,998
33.5130607,994
33.53932126,1071
33.56558183,1052
33.59184239,1113
33.61810296,1043
33.64436352,1056
33.67062409,1004
33.69688465,1006
33.72314522,1045
33.74940578,987
33.77566635,1012
33.80192691,997
33.82818748,1058
33.85444804,1035
33.88070861,1003
33.90696917,1073
33.93322974,966
33.9594903,1019
33.98575087,1076
34.01201143,1053
34.038272,1008
34.06453256,1076
34.09079313,1034
34.11705369,1059
34.14331426,1046
34.16957482,1072
34.19583539,1016
34.22209595,1088
34.24835652,1098
34.27461708,1116
34.30087765,1103
34.32713821,1071
34.35339878,1155
34.37965934,1075
34.40591991,1194
34.43218047,1089
34.45844104,1162
34.4847016,1151
34.51096217,1202
34.53722273,1180
34.5634833,1199
34.58974386,1127
34.61600443,1162
34.64226499,1273
34.66852556,1198
34.69478612,1293
34.72104669,1258
34.74730725,1265
34.77356782,1333
34.79982838,1362
34.82608895,1438
34.85234951,1365
34.87861008,1519
34.90487064,1569
34.93113121,1576
34.95739177,1643
34.98365234,1623
35.0099129,1768
35.03617347,1782
35.06243403,1857
35.0886946,1938
35.11495516,2156
35.14121573,2099
35.16747629,2309
35.19373686,2432
35.21999742,2528
35.24625799,2659
35.27251855,2786
35.29877912,3030
35.32503968,2964
35.35130025,3243
35.37756081,3269
35.40382138,3481
35.43008194,3435
35.45634251,3623
35.48260307,3592
35.50886364,3602
35.5351242,3610
35.56138477,3575
35.58764533,3529
35.6139059,3392
35.64016646,3354
35.66642703,3178
35.69268759,2997
35.71894816,2866
35.74520872,2764
35.77146929,2623
35.79772985,2432
35.82399042,2261
35.85025098,2296
35.87651155,2171
35.90277211,1991
35.92903268,1944
35.95529324,1880
35.98155381,1768
36.00781437,1655
36.03407494,1709
36.0603355,1636
36.08659607,1587
36.11285663,1488
36.1391172,1443
36.16537776,1465
36.19163833,1381
36.21789889,1264
36.24415946,1330
36.27042002,1322
36.29668059,1303
36.32294115,1241
36.34920172,1295
36.37546228,1244
36.40172285,1224
36.42798341,1224
36.45424398,1185
36.48050454,1205
36.50676511,1187
36.53302567,1203
36.55928624,1207
36.5855468,1155
36.61180737,1171
36.63806793,1173
36.6643285,1154
36.69058906,1159
36.71684963,1141
36.74311019,1149
36.76937076,1167
36.79563132,1167
36.82189189,1181
36.84815245,1123
36.87441302,1157
36.90067358,1066
36.92693415,1184
36.95319471,1105
36.97945528,1126
37.00571584,1155
37.03197641,1121
37.05823697,1132
37.08449754,1159
37.1107581,1165
37.13701867,1178
37.16327923,1166
37.1895398,1213
37.21580036,1144
37.24206093,1158
37.26832149,1206
37.29458206,1159
37.32084262,1212
37.34710319,1165
37.37336375,1190
37.39962432,1223
37.42588488,1216
37.45214545,1278
37.47840601,1231
37.50466658,1232
37.53092714,1239
37.55718771,1281
37.58344827,1276
37.60970884,1281
37.6359694,1283
37.66222997,1267
37.68849053,1317
37.7147511,1297
37.74101166,1355
37.76727223,1454
37.79353279,1404
37.81979336,1451
37.84605392,1479
37.87231449,1461
37.89857505,1512
37.92483562,1584
37.95109618,1545
37.97735675,1549
38.00361731,1633
38.02987788,1606
38.05613844,1673
38.08239901,1735
38.10865957,1788
38.13492014,1769
38.1611807,1844
38.18744127,1914
38.21370183,2027
38.2399624,2039
38.26622296,2077
38.29248353,2141
38.31874409,2326
38.34500466,2272
38.37126522,2420
38.39752579,2414
38.42378635,2685
38.45004692,2804
38.47630748,2784
38.50256805,2868
38.52882861,2958
38.55508918,3149
38.58134974,3330
38.60761031,3308
38.63387087,3339
38.66013144,3400
38.686392,3617
38.71265257,3525
38.73891313,3578
38.7651737,3572
38.79143426,3477
38.81769483,3492
38.84395539,3374
38.87021596,3233
38.89647652,3138
38.92273709,3048
38.94899765,2978
38.97525822,2912
39.00151878,2814
39.02777935,2708
39.05403991,2520
39.08030048,2430
39.10656104,2400
39.13282161,2284
39.15908217,2164
39.18534274,2049
39.2116033,2003
39.23786387,1874
39.26412443,1759
39.290385,1724
39.31664556,1656
39.34290613,1624
39.36916669,1591
39.39542726,1597
39.42168782,1486
39.44794839,1485
39.47420895,1419
39.50046952,1417
39.52673008,1352
39.55299065,1429
39.57925121,1338
39.60551178,1234
39.63177234,1293
39.65803291,1287
39.68429347,1271
39.71055404,1226
39.7368146,1189
39.76307517,1166
39.78933573,1215
39.8155963,1233
39.84185686,1168
39.86811743,1156
39.89437799,1204
39.92063856,1177
39.94689912,1191
39.97315969,1144
39.99942025,1075
40.02568082,1091
40.05194138,1085
40.07820195,1110
40.10446251,1136
40.13072308,1116
40.15698364,1040
40.18324421,1094
40.20950477,1147
40.23576534,1046
40.2620259,1105
40.28828647,1023
40.31454703,1075
40.3408076,1058
40.36706816,1031
40.39332873,1044
40.41958929,1050
40.44584986,1008
40.47211042,991
40.49837099,1002
40.52463155,1003
40.55089212,1053
40.57715268,1015
40.60341325,1008
40.62967381,992
40.65593438,988
40.68219494,1033
40.70845551,990
40.73471607,1032
40.76097664,1040
40.7872372,1022
40.81349777,994
40.83975833,990
40.8660189,945
40.89227946,1014
40.91854003,1020
40.94480059,976
40.97106116,1001
40.99732172,1001
41.02358229,997
41.04984285,1091
41.07610342,1035
41.10236398,1043
41.12862455,1007
41.15488511,979
41.18114568,966
41.20740624,1014
41.23366681,972
41.25992737,1002
41.28618794,940
41.3124485,957
41.33870907,957
41.36496963,1010
41.3912302,983
41.41749076,1053
41.44375133,1042
41.47001189,982
41.49627246,982
41.52253302,974
41.54879359,983
41.57505415,982
41.60131472,999
41.62757528,977
41.65383585,915
41.68009641,996
41.70635698,994
41.73261754,971
41.75887811,922
41.78513867,930
41.81139924,935
41.8376598,974
41.86392037,983
41.89018093,909
41.9164415,956
41.94270206,979
41.96896263,993
41.99522319,983
42.02148376,929
42.04774432,992
42.07400489,972
42.10026545,1010
42.12652602,963
42.15278658,951
42.17904715,978
42.20530771,956
42.23156828,943
42.25782884,923
42.28408941,968
42.31034997,991
42.33661054,905
42.3628711,921
42.38913167,951
42.41539223,976
42.4416528,932
42.46791336,968
42.49417393,953
42.52043449,974
42.54669506,970
42.57295562,952
42.59921619,965
42.62547675,943
42.65173732,980
42.67799788,976
42.70425845,987
42.73051901,961
42.75677958,959
42.78304014,916
42.80930071,945
42.83556127,916
42.86182184,962
42.8880824,948
42.91434297,910
42.94060353,897
42.9668641,976
42.99312466,981
43.01938523,957
43.04564579,982
43.07190636,953
43.09816692,978
43.12442749,955
43.15068805,952
43.17694862,936
43.20320918,935
43.22946975,945
43.25573031,924
43.28199088,972
43.30825144,933
43.33451201,961
43.36077257,881
43.38703314,900
43.4132937,968
43.43955427,950
43.46581483,923
43.4920754,947
43.51833596,944
43.54459653,913
43.57085709,927
43.59711766,983
43.62337822,964
43.64963879,965
43.67589935,941
43.70215992,926
43.72842048,930
43.75468105,1038
43.78094161,955
43.80720218,986
43.83346274,957
43.85972331,957
43.88598387,921
43.91224444,966
43.938505,896
43.96476557,944
43.99102613,1021
44.0172867,921
44.04354726,940
44.06980783,976
44.09606839,940
44.12232896,965
44.14858952,960
44.17485009,964
44.20111065,977
44.22737122,911
44.25363178,950
44.27989235,920
44.30615291,961
44.33241348,914
44.35867404,1007
44.38493461,917
44.41119517,956
44.43745574,992
44.4637163,921
44.48997687,935
44.51623743,938
44.542498,983
44.56875856,904
44.59501913,953
44.62127969,880
44.64754026,903
44.67380082,928
44.70006139,958
44.72632195,983
44.75258252,904
44.77884308,1015
44.80510365,880
44.83136421,958
44.85762478,913
44.88388534,933
44.91014591,912
44.93640647,1001
44.96266704,973
44.9889276,942
45.01518817,878
45.04144873,966
45.0677093,902
45.09396986,934
45.12023043,976
45.14649099,943
45.17275156,975
45.19901212,951
45.22527269,932
45.25153325,905
45.27779382,1011
45.30405438,927
45.33031495,935
45.35657551,948
45.38283608,958
45.40909664,974
45.43535721,964
45.46161777,983
45.48787834,981
45.5141389,999
45.54039947,912
45.56666003,932
45.5929206,968
45.61918116,913
45.64544173,997
45.67170229,958
45.69796286,959
45.72422342,934
45.75048399,954
45.77674455,1004
45.80300512,958
45.82926568,935
45.85552625,929
45.88178681,983
45.90804738,895
45.93430794,934
45.96056851,959
45.98682907,1021
46.01308964,910
46.0393502,943
46.06561077,1002
46.09187133,1001
46.1181319,998
46.14439246,999
46.17065303,987
46.19691359,967
46.22317416,997
46.24943472,1037
46.27569529,960
46.30195585,963
46.32821642,984
46.35447698,1015
46.38073755,982
46.40699811,1002
46.43325868,1039
46.45951924,1001
46.48577981,1002
46.51204037,917
46.53830094,939
46.5645615,958
46.59082207,1016
46.61708264,924
46.6433432,970
46.66960377,959
46.69586433,1011
46.7221249,961
46.74838546,958
46.77464603,979
46.80090659,1006
46.82716716,937
46.85342772,967
46.87968829,952
46.90594885,949
46.93220942,965
46.95846998,959
46.98473055,990
47.01099111,954
47.03725168,915
47.06351224,983
47.08977281,927
47.11603337,958
47.14229394,1020
47.1685545,981
47.19481507,952
47.22107563,1003
47.2473362,969
47.27359676,1023
47.29985733,986
47.32611789,971
47.35237846,1022
47.37863902,930
47.40489959,920
47.43116015,943
47.45742072,993
47.48368128,969
47.50994185,1001
47.53620241,1007
47.56246298,988
47.58872354,980
47.61498411,975
47.64124467,912
47.66750524,1020
47.6937658,988
47.72002637,954
47.74628693,973
47.7725475,1036
47.79880806,1020
47.82506863,1007
47.85132919,1003
47.87758976,1036
47.90385032,1038
47.93011089,1131
47.95637145,1041
47.98263202,1050
48.00889258,1090
48.03515315,1047
48.06141371,1140
48.08767428,1112
48.11393484,1083
48.14019541,1144
48.16645597,1140
48.19271654,1131
48.2189771,1163
48.24523767,1085
48.27149823,1157
48.2977588,1277
48.32401936,1232
48.35027993,1285
48.37654049,1275
48.40280106,1225
48.42906162,1316
48.45532219,1375
48.48158275,1364
48.50784332,1332
48.53410388,1380
48.56036445,1397
48.58662501,1472
48.61288558,1375
48.63914614,1532
48.66540671,1500
48.69166727,1563
48.71792784,1468
48.7441884,1491
48.77044897,1458
48.79670953,1481
48.8229701,1483
48.84923066,1586
48.87549123,1546
48.90175179,1456
48.92801236,1440
48.95427292,1441
48.98053349,1406
49.00679405,1418
49.03305462,1318
49.05931518,1317
49.08557575,1316
49.11183631,1292
49.13809688,1285
49.16435744,1222
49.19061801,1230
49.21687857,1196
49.24313914,1243
49.2693997,1194
49.29566027,1179
49.32192083,1183
49.3481814,1083
49.37444196,1118
49.40070253,1126
49.42696309,1109
49.45322366,1179
49.47948422,1077
49.50574479,1106
49.53200535,1081
49.55826592,1085
49.58452648,1051
49.61078705,1051
49.63704761,1113
49.66330818,1039
49.68956874,988
49.71582931,1114
49.74208987,1091
49.76835044,980
49.794611,1045
49.82087157,990
49.84713213,1052
49.8733927,1020
49.89965326,1011
49.92591383,1016
49.95217439,1051
49.97843496,1062
50.00469552,989
50.03095609,979
50.05721665,917
50.08347722,1026
50.10973778,1043
50.13599835,958
50.16225891,982
50.18851948,1068
50.21478004,982
50.24104061,931
50.26730117,999
50.29356174,937
50.3198223,971
50.34608287,958
50.37234343,942
50.398604,970
50.42486456,980
50.45112513,943
50.47738569,951
50.50364626,971
50.52990682,978
50.55616739,993
50.58242795,966
50.60868852,965
50.63494908,935
50.66120965,950
50.68747021,911
50.71373078,971
50.73999134,972
50.76625191,954
50.79251247,979
50.81877304,976
50.8450336,1009
50.87129417,997
50.89755473,931
50.9238153,963
50.95007586,1015
50.97633643,976
51.00259699,945
51.02885756,926
51.05511812,984
51.08137869,936
51.10763925,983
51.13389982,947
51.16016038,965
51.18642095,951
51.21268151,946
51.23894208,973
51.26520264,981
51.29146321,966
51.31772377,951
51.34398434,981
51.3702449,998
51.39650547,1022
51.42276603,1004
51.4490266,942
51.47528716,966
51.50154773,948
51.52780829,903
51.55406886,1031
51.58032942,1041
51.60658999,978
51.63285055,983
51.65911112,1069
51.68537168,936
51.71163225,975
51.73789281,923
51.76415338,968
51.79041394,968
51.81667451,909
51.84293507,966
51.86919564,967
51.8954562,936
51.92171677,1010
51.94797733,1021
51.9742379,966
52.00049846,918
52.02675903,971
52.05301959,973
52.07928016,952
52.10554072,972
52.13180129,947
52.15806185,997
52.18432242,953
52.21058298,974
52.23684355,967
52.26310411,918
52.28936468,970
52.31562524,954
52.34188581,1022
52.36814637,986
52.39440694,992
52.4206675,951
52.44692807,946
52.47318863,973
52.4994492,974
52.52570976,1092
52.55197033,1018
52.57823089,1010
52.60449146,1005
52.63075202,976
52.65701259,992
52.68327315,982
52.70953372,1013
52.73579428,984
52.76205485,967
52.78831541,999
52.81457598,1057
52.84083654,1036
52.86709711,1050
52.89335767,1010
52.91961824,997
52.9458788,1020
52.97213937,1033
52.99839993,1039
53.0246605,1028
53.05092106,1029
53.07718163,987
53.10344219,991
53.12970276,1007
53.15596332,1118
53.18222389,1053
53.20848445,1053
53.23474502,1043
53.26100558,1070
53.28726615,1098
53.31352671,1096
53.33978728,1008
53.36604784,1037
53.39230841,1122
53.41856897,1033
53.44482954,1072
53.4710901,1140
53.49735067,1080
53.52361123,1138
53.5498718,1047
53.57613236,1081
53.60239293,1068
53.62865349,1050
53.65491406,1043
53.68117462,1099
53.70743519,1046
53.73369575,1018
53.75995632,1096
53.78621688,1065
53.81247745,1050
53.83873801,1041
53.86499858,998
53.89125914,1009
53.91751971,997
53.94378027,1004
53.97004084,1045
53.9963014,1035
54.02256197,922
54.04882253,1001
54.0750831,996
54.10134366,933
54.12760423,1002
54.15386479,983
54.18012536,1008
54.20638592,968
54.23264649,1007
54.25890705,924
54.28516762,1003
54.31142818,978
54.33768875,993
54.36394931,928
54.39020988,1004
54.41647044,952
54.44273101,992
54.46899157,930
54.49525214,989
54.5215127,946
54.54777327,991
54.57403383,941
54.6002944,975
54.62655496,956
54.65281553,966
54.67907609,933
54.70533666,995
54.73159722,978
54.75785779,977
54.78411835,929
54.81037892,977
54.83663948,888
54.86290005,900
54.88916061,977
54.91542118,942
54.94168174,972
54.96794231,944
54.99420287,929
55.02046344,907
55.046724,971
55.07298457,964
55.09924513,949
55.1255057,915
55.15176626,935
55.17802683,941
55.20428739,911
55.23054796,950
55.25680852,918
55.28306909,880
55.30932965,987
55.33559022,960
55.36185078,969
55.38811135,974
55.41437191,949
55.44063248,968
55.46689304,911
55.49315361,940
55.51941417,961
55.54567474,903
55.5719353,948
55.59819587,955
55.62445643,943
55.650717,963
55.67697756,896
55.70323813,924
55.72949869,958
55.75575926,965
55.78201982,907
55.80828039,977
55.83454095,937
55.86080152,932
55.88706208,922
55.91332265,918
55.93958321,950
55.96584378,939
55.99210434,941
56.01836491,917
56.04462547,923
56.07088604,944
56.0971466,951
56.12340717,979
56.14966773,910
56.1759283,958
56.20218886,972
56.22844943,959
56.25470999,896
56.28097056,955
56.30723112,953
56.33349169,965
56.35975225,1012
56.38601282,894
56.41227338,946
56.43853395,1023
56.46479451,1003
56.49105508,928
56.51731564,947
56.54357621,989
56.56983677,932
56.59609734,1005
56.6223579,930
56.64861847,986
56.67487903,926
56.7011396,957
56.72740016,942
56.75366073,1016
56.77992129,968
56.80618186,983
56.83244242,1030
56.85870299,957
56.88496355,988
56.91122412,967
56.93748468,958
56.96374525,984
56.99000581,976
57.01626638,953
57.04252694,1003
57.06878751,1019
57.09504807,952
57.12130864,977
57.1475692,974
57.17382977,1019
57.20009033,1015
57.2263509,1024
57.25261146,982
57.27887203,953
57.30513259,1024
57.33139316,981
57.35765372,1009
57.38391429,1020
57.41017485,1028
57.43643542,994
57.46269598,992
57.48895655,1040
57.51521711,1073
57.54147768,1010
57.56773824,1036
57.59399881,1018
57.62025937,1036
57.64651994,966
57.6727805,1035
57.69904107,1049
57.72530163,1045
57.7515622,1055
57.77782276,1117
57.80408333,1067
57.83034389,1169
57.85660446,1112
57.88286502,1130
57.90912559,1074
57.93538615,1128
57.96164672,1165
57.98790728,1166
58.01416785,1135
58.04042841,1146
58.06668898,1143
58.09294954,1150
58.11921011,1157
58.14547067,1173
58.17173124,1167
58.1979918,1176
58.22425237,1150
58.25051293,1172
58.2767735,1166
58.30303406,1191
58.32929463,1168
58.35555519,1192
58.38181576,1210
58.40807632,1250
58.43433689,1137
58.46059745,1167
58.48685802,1170
58.51311858,1168
58.53937915,1120
58.56563971,1130
58.59190028,1124
58.61816084,1052
58.64442141,1124
58.67068197,1109
58.69694254,1036
58.7232031,1102
58.74946367,1086
58.77572423,1009
58.8019848,1072
58.82824536,1032
58.85450593,1021
58.88076649,999
58.90702706,1012
58.93328762,990
58.95954819,1016
58.98580875,1036
59.01206932,1069
59.03832988,996
59.06459045,948
59.09085101,1010
59.11711158,993
59.14337214,960
59.16963271,993
59.19589327,958
59.22215384,950
59.2484144,975
59.27467497,938
59.30093553,935
59.3271961,1022
59.35345666,1038
59.37971723,1013
59.40597779,1029
59.43223836,964
59.45849892,983
59.48475949,949
59.51102005,921
59.53728062,1022
59.56354118,946
59.58980175,953
59.61606231,998
59.64232288,933
59.66858344,963
59.69484401,976
59.72110457,1014
59.74736514,969
59.7736257,940
59.79988627,961
59.82614683,986
59.8524074,973
59.87866796,979
59.90492853,979
59.93118909,924
59.95744966,948
59.98371022,976
60.00997079,912
60.03623135,956
60.06249192,999
60.08875248,931
60.11501305,955
60.14127361,1000
60.16753418,1001
60.19379474,981
60.22005531,929
60.24631587,974
60.27257644,975
60.298837,937
60.32509757,1023
60.35135813,1038
60.3776187,972
60.40387926,948
60.43013983,981
60.45640039,995
60.48266096,996
60.50892152,974
60.53518209,985
60.56144265,1037
60.58770322,1000
60.61396379,1001
60.64022435,977
60.66648492,978
60.69274548,962
60.71900605,1014
60.74526661,1030
60.77152718,1073
60.79778774,1108
60.82404831,989
60.85030887,1103
60.87656944,1120
60.90283,1070
60.92909057,1008
60.95535113,1064
60.9816117,1139
61.00787226,1051
61.03413283,1124
61.06039339,1132
61.08665396,1086
61.11291452,1116
61.13917509,1112
61.16543565,1151
61.19169622,1237
61.21795678,1224
61.24421735,1153
61.27047791,1169
61.29673848,1259
61.32299904,1261
61.34925961,1242
61.37552017,1291
61.40178074,1207
61.4280413,1323
61.45430187,1291
61.48056243,1331
61.506823,1269
61.53308356,1327
61.55934413,1350
61.58560469,1313
61.61186526,1308
61.63812582,1318
61.66438639,1269
61.69064695,1271
61.71690752,1268
61.74316808,1258
61.76942865,1236
61.79568921,1255
61.82194978,1205
61.84821034,1178
61.87447091,1201
61.90073147,1183
61.92699204,1135
61.9532526,1134
61.97951317,1111
62.00577373,1114
62.0320343,1051
62.05829486,1132
62.08455543,1079
62.11081599,1086
62.13707656,1034
62.16333712,1070
62.18959769,1082
62.21585825,1085
62.24211882,1016
62.26837938,1059
62.29463995,1006
62.32090051,999
62.34716108,972
62.37342164,1070
62.39968221,1036
62.42594277,1007
62.45220334,1045
62.4784639,1026
62.50472447,991
62.53098503,1015
62.5572456,989
62.58350616,949
62.60976673,979
62.63602729,963
62.66228786,1005
62.68854842,1008
62.71480899,988
62.74106955,1046
62.76733012,995
62.79359068,950
62.81985125,980
62.84611181,979
62.87237238,1031
62.89863294,937
62.92489351,924
62.95115407,979
62.97741464,953
63.0036752,908
63.02993577,960
63.05619633,959
63.0824569,985
63.10871746,920
63.13497803,1007
63.16123859,989
63.18749916,1023
63.21375972,977
63.24002029,941
63.26628085,935
63.29254142,966
63.31880198,978
63.34506255,933
63.37132311,987
63.39758368,953
63.42384424,989
63.45010481,946
63.47636537,954
63.50262594,959
63.5288865,878
63.55514707,971
63.58140763,1014
63.6076682,1004
63.63392876,917
63.66018933,964
63.68644989,930
63.71271046,922
63.73897102,959
63.76523159,972
63.79149215,961
63.81775272,1036
63.84401328,974
63.87027385,1001
63.89653441,1033
63.92279498,1012
63.94905554,1014
63.97531611,971
64.00157667,951
64.02783724,973
64.0540978,934
64.08035837,920
64.10661893,977
64.1328795,1001
64.15914006,969
64.18540063,987
64.21166119,1036
64.23792176,991
64.26418232,1015
64.29044289,1002
64.31670345,966
64.34296402,968
64.36922458,987
64.39548515,983
64.42174571,996
64.44800628,975
64.47426684,992
64.50052741,987
64.52678797,967
64.55304854,1003
64.5793091,1021
64.60556967,965
64.63183023,966
64.6580908,1008
64.68435136,1062
64.71061193,1036
64.73687249,1059
64.76313306,1032
64.78939362,1074
64.81565419,1068
64.84191475,1016
64.86817532,1066
64.89443588,1024
64.92069645,962
64.94695701,1062
64.97321758,1044
64.99947814,1045
65.02573871,1052
65.05199927,1038
65.07825984,1075
65.1045204,1100
65.13078097,1096
65.15704153,1047
65.1833021,1039
65.20956266,1121
65.23582323,1036
65.26208379,1065
65.28834436,1018
65.31460492,1088
65.34086549,1135
65.36712605,1106
65.39338662,1136
65.41964718,1138
65.44590775,1168
65.47216831,1135
65.49842888,1191
65.52468944,1185
65.55095001,1188
65.57721057,1157
65.60347114,1228
65.6297317,1259
65.65599227,1205
65.68225283,1210
65.7085134,1299
65.73477396,1249
65.76103453,1291
65.78729509,1270
65.81355566,1302
65.83981622,1367
65.86607679,1215
65.89233735,1228
65.91859792,1247
65.94485848,1310
65.97111905,1374
65.99737961,1310
66.02364018,1310
66.04990074,1353
66.07616131,1426
66.10242187,1451
66.12868244,1358
66.154943,1425
66.18120357,1355
66.20746413,1402
66.2337247,1436
66.25998526,1374
66.28624583,1396
66.31250639,1355
66.33876696,1410
66.36502752,1386
66.39128809,1387
66.41754865,1394
66.44380922,1281
66.47006978,1384
66.49633035,1361
66.52259091,1332
66.54885148,1418
66.57511204,1268
66.60137261,1287
66.62763317,1246
66.65389374,1202
66.6801543,1231
66.70641487,1202
66.73267543,1139
66.758936,1156
66.78519656,1169
66.81145713,1194
66.83771769,1123
66.86397826,1210
66.89023882,1168
66.91649939,1149
66.94275995,1142
66.96902052,1170
66.99528108,1155
67.02154165,1168
67.04780221,1106
67.07406278,1109
67.10032334,1152
67.12658391,1165
67.15284447,1174
67.17910504,1126
67.2053656,1205
67.23162617,1132
67.25788673,1100
67.2841473,1109
67.31040786,1224
67.33666843,1171
67.36292899,1165
67.38918956,1219
67.41545012,1187
67.44171069,1157
67.46797125,1144
67.49423182,1153
67.52049238,1170
67.54675295,1257
67.57301351,1169
67.59927408,1175
67.62553464,1262
67.65179521,1225
67.67805577,1271
67.70431634,1239
67.7305769,1255
67.75683747,1326
67.78309803,1182
67.8093586,1202
67.83561916,1367
67.86187973,1308
67.88814029,1322
67.91440086,1278
67.94066142,1318
67.96692199,1378
67.99318255,1402
68.01944312,1361
68.04570368,1353
68.07196425,1338
68.09822481,1316
68.12448538,1296
68.15074594,1345
68.17700651,1246
68.20326707,1340
68.22952764,1283
68.2557882,1242
68.28204877,1256
68.30830933,1263
68.3345699,1210
68.36083046,1207
68.38709103,1197
68.41335159,1266
68.43961216,1105
68.46587272,1145
68.49213329,1116
68.51839385,1087
68.54465442,1094
68.57091498,1094
68.59717555,1002
68.62343611,1140
68.64969668,1033
68.67595724,1071
68.70221781,1048
68.72847837,1040
68.75473894,1007
68.7809995,1051
68.80726007,1091
68.83352063,1064
68.8597812,1025
68.88604176,1052
68.91230233,1043
68.93856289,1001
68.96482346,1040
68.99108402,1000
69.01734459,1022
69.04360515,989
69.06986572,1000
69.09612628,968
69.12238685,1030
69.14864741,961
69.17490798,953
69.20116854,959
69.22742911,1000
69.25368967,1038
69.27995024,951
69.3062108,990
69.33247137,997
69.35873193,943
69.3849925,911
69.41125306,966
69.43751363,947
69.46377419,981
69.49003476,999
69.51629532,970
69.54255589,951
69.56881645,983
69.59507702,952
69.62133758,959
69.64759815,947
69.67385871,936
69.70011928,1016
69.72637984,960
69.75264041,1005
69.77890097,983
69.80516154,1019
69.8314221,965
69.85768267,984
69.88394323,943
69.9102038,896
69.93646436,1034
69.96272493,952
69.98898549,929
70.01524606,942
70.04150662,915
70.06776719,941
70.09402775,922
70.12028832,970
70.14654888,977
70.17280945,861
70.19907001,966
70.22533058,948
70.25159114,963
70.27785171,931
70.30411227,911
70.33037284,950
70.3566334,923
70.38289397,864
70.40915453,934
70.4354151,934
70.46167566,923
70.48793623,903
70.51419679,971
70.54045736,929
70.56671792,995
70.59297849,914
70.61923905,900
70.64549962,901
70.67176018,910
70.69802075,939
70.72428131,940
70.75054188,936
70.77680244,942
70.80306301,933
70.82932357,876
70.85558414,969
70.8818447,950
70.90810527,939
70.93436583,920
70.9606264,903
70.98688696,923
71.01314753,965
71.03940809,939
71.06566866,965
71.09192922,984
71.11818979,939
71.14445035,990
71.17071092,944
71.19697148,926
71.22323205,967
71.24949261,954
71.27575318,972
71.30201374,922
71.32827431,1000
71.35453487,929
71.38079544,978
71.407056,946
71.43331657,976
71.45957713,920
71.4858377,952
71.51209826,988
71.53835883,931
71.56461939,939
71.59087996,965
71.61714052,948
71.64340109,982
71.66966165,941
71.69592222,976
71.72218278,1030
71.74844335,1013
71.77470391,1020
71.80096448,987
71.82722504,1024
71.85348561,1006
71.87974617,986
71.90600674,1043
71.9322673,997
71.95852787,1042
71.98478843,1026
72.011049,1006
72.03730956,1042
72.06357013,1011
72.08983069,1023
72.11609126,1037
72.14235182,1046
72.16861239,1045
72.19487295,1033
72.22113352,1009
72.24739408,1061
72.27365465,1058
72.29991521,1051
72.32617578,1059
72.35243634,1032
72.37869691,1056
72.40495747,1063
72.43121804,1080
72.4574786,1028
72.48373917,1074
72.50999973,1006
72.5362603,1024
72.56252086,1041
72.58878143,1066
72.61504199,1002
72.64130256,1015
72.66756312,1098
72.69382369,1041
72.72008425,1057
72.74634482,982
72.77260538,956
72.79886595,1012
72.82512651,999
72.85138708,1054
72.87764764,979
72.90390821,975
72.93016877,976
72.95642934,987
72.9826899,963
73.00895047,990
73.03521103,991
73.0614716,962
73.08773216,1019
73.11399273,981
73.14025329,947
73.16651386,983
73.19277442,961
73.21903499,1012
73.24529555,1012
73.27155612,948
73.29781668,1011
73.32407725,972
73.35033781,911
73.37659838,931
73.40285894,961
73.42911951,961
73.45538007,994
73.48164064,944
73.5079012,994
73.53416177,960
73.56042233,985
73.5866829,945
73.61294346,965
73.63920403,988
73.66546459,918
73.69172516,986
73.71798572,969
73.74424629,924
73.77050685,972
73.79676742,876
73.82302798,946
73.84928855,939
73.87554911,992
73.90180968,963
73.92807024,921
73.95433081,937
73.98059137,974
74.00685194,919
74.0331125,929
74.05937307,986
74.08563363,989
74.1118942,999
74.13815476,1034
74.16441533,1001
74.19067589,974
74.21693646,1013
74.24319702,991
74.26945759,1015
74.29571815,964
74.32197872,983
74.34823928,995
74.37449985,979
74.40076041,1003
74.42702098,978
74.45328154,991
74.47954211,1011
74.50580267,1027
74.53206324,1021
74.5583238,1024
74.58458437,1009
74.61084494,1076
74.6371055,1012
74.66336607,1019
74.68962663,1086
74.7158872,1022
74.74214776,1070
74.76840833,1111
74.79466889,998
74.82092946,1102
74.84719002,1061
74.87345059,1096
74.89971115,1074
74.92597172,1081
74.95223228,1168
74.97849285,1079
75.00475341,1104
75.03101398,1096
75.05727454,1071
75.08353511,1076
75.10979567,1090
75.13605624,1123
75.1623168,1103
75.18857737,1051
75.21483793,1047
75.2410985,1092
75.26735906,1123
75.29361963,1071
75.31988019,1077
75.34614076,1054
75.37240132,1030
75.39866189,1073
75.42492245,1073
75.45118302,991
75.47744358,1018
75.50370415,1030
75.52996471,988
75.55622528,997
75.58248584,1084
75.60874641,983
75.63500697,1029
75.66126754,1006
75.6875281,1014
75.71378867,999
75.74004923,922
75.7663098,987
75.79257036,932
75.81883093,946
75.84509149,979
75.87135206,959
75.89761262,1044
75.92387319,1005
75.95013375,972
75.97639432,989
76.00265488,951
76.02891545,961
76.05517601,949
76.08143658,941
76.10769714,979
76.13395771,936
76.16021827,993
76.18647884,944
76.2127394,904
76.23899997,995
76.26526053,945
76.2915211,905
76.31778166,969
76.34404223,983
76.37030279,942
76.39656336,890
76.42282392,886
76.44908449,962
76.47534505,952
76.50160562,957
76.52786618,948
76.55412675,914
76.58038731,926
76.60664788,943
76.63290844,937
76.65916901,910
76.68542957,954
76.71169014,948
76.7379507,960
76.76421127,905
76.79047183,918
76.8167324,918
76.84299296,894
76.86925353,868
76.89551409,923
76.92177466,942
76.94803522,916
76.97429579,938
77.00055635,928
77.02681692,942
77.05307748,936
77.07933805,948
77.10559861,928
77.13185918,933
77.15811974,879
77.18438031,935
77.21064087,954
77.23690144,884
77.263162,945
77.28942257,919
77.31568313,934
77.3419437,896
77.36820426,891
77.39446483,959
77.42072539,861
77.44698596,896
77.47324652,888
77.49950709,957
77.52576765,881
77.55202822,909
77.57828878,908
77.60454935,907
77.63080991,961
77.65707048,938
77.68333104,906
77.70959161,932
77.73585217,908
77.76211274,893
77.7883733,888
77.81463387,940
77.84089443,896
77.867155,944
77.89341556,964
77.91967613,945
77.94593669,939
77.97219726,929
77.99845782,917
78.02471839,962
78.05097895,968
78.07723952,931
78.10350008,919
78.12976065,955
78.15602121,951
78.18228178,884
78.20854234,938
78.23480291,889
78.26106347,945
78.28732404,897
78.3135846,873
78.33984517,914
78.36610573,908
78.3923663,986
78.41862686,941
78.44488743,979
78.47114799,914
78.49740856,882
78.52366912,923
78.54992969,913
78.57619025,961
78.60245082,904
78.62871138,942
78.65497195,900
78.68123251,887
78.70749308,953
78.73375364,880
78.76001421,985
78.78627477,933
78.81253534,892
78.8387959,927
78.86505647,912
78.89131703,895
78.9175776,931
78.94383816,902
78.97009873,897
78.99635929,975
79.02261986,914
79.04888042,869
79.07514099,903
79.10140155,934
79.12766212,873
79.15392268,946
79.18018325,941
79.20644381,924
79.23270438,928
79.25896494,930
79.28522551,979
79.31148607,891
79.33774664,969
79.3640072,948
79.39026777,909
79.41652833,938
79.4427889,934
79.46904946,936
79.49531003,890
79.52157059,872
79.54783116,927
79.57409172,971
79.60035229,982
79.62661285,985
79.65287342,919
79.67913398,889
79.70539455,969
79.73165511,959
79.75791568,991
79.78417624,947
79.81043681,984
79.83669737,947
79.86295794,940
79.8892185,1010
79.91547907,938
79.94173963,844
79.9680002,973
79.99426076,894
80.02052133,997
80.04678189,927
80.07304246,941
80.09930302,971
80.12556359,978
80.15182415,977
80.17808472,1014
80.20434528,1030
80.23060585,954
80.25686641,993
80.28312698,957
80.30938754,986
80.33564811,988
80.36190867,994
80.38816924,971
80.4144298,969
80.44069037,968
80.46695093,969
80.4932115,949
80.51947206,987
80.54573263,988
80.57199319,935
80.59825376,911
80.62451432,899
80.65077489,962
80.67703545,974
80.70329602,965
80.72955658,894
80.75581715,924
80.78207771,905
80.80833828,996
80.83459884,932
80.86085941,961
80.88711997,941
80.91338054,955
80.9396411,890
80.96590167,990
80.99216223,952
81.0184228,929
81.04468336,923
81.07094393,965
81.09720449,1000
81.12346506,948
81.14972562,921
81.17598619,934
81.20224675,959
81.22850732,876
81.25476788,920
81.28102845,954
81.30728901,901
81.33354958,917
81.35981014,959
81.38607071,950
81.41233127,950
81.43859184,988
81.4648524,943
81.49111297,957
81.51737353,960
81.5436341,921
81.56989466,969
81.59615523,910
81.62241579,949
81.64867636,975
81.67493692,969
81.70119749,970
81.72745805,918
81.75371862,974
81.77997918,913
81.80623975,1000
81.83250031,971
81.85876088,959
81.88502144,980
81.91128201,990
81.93754257,1001
81.96380314,987
81.9900637,974
82.01632427,1044
82.04258483,997
82.0688454,984
82.09510596,1032
82.12136653,1049
82.14762709,1033
82.17388766,1005
82.20014822,972
82.22640879,1011
82.25266935,1012
82.27892992,955
82.30519048,1001
82.33145105,1042
82.35771161,1022
82.38397218,1053
82.41023274,1014
82.43649331,1006
82.46275387,1035
82.48901444,993
82.515275,991
82.54153557,1098
82.56779613,1060
82.5940567,1034
82.62031726,1059
82.64657783,991
82.67283839,1030
82.69909896,1115
82.72535952,990
82.75162009,973
82.77788065,1018
82.80414122,989
82.83040178,1023
82.85666235,1056
82.88292291,1075
82.90918348,999
82.93544404,1066
82.96170461,1074
82.98796517,1051
83.01422574,1058
83.0404863,1075
83.06674687,1007
83.09300743,1053
83.119268,1064
83.14552856,1029
83.17178913,1062
83.19804969,1002
83.22431026,990
83.25057082,1101
83.27683139,1005
83.30309195,1007
83.32935252,1039
83.35561308,1039
83.38187365,1099
83.40813421,1060
83.43439478,1043
83.46065534,985
83.48691591,993
83.51317647,1055
83.53943704,985
83.5656976,1023
83.59195817,1050
83.61821873,964
83.6444793,1024
83.67073986,1027
83.69700043,1006
83.72326099,1025
83.74952156,1003
83.77578212,1020
83.80204269,1035
83.82830325,1044
83.85456382,950
83.88082438,977
83.90708495,1002
83.93334551,1068
83.95960608,986
83.98586664,1017
84.01212721,1007
84.03838777,935
84.06464834,993
84.0909089,952
84.11716947,952
84.14343003,996
84.1696906,942
84.19595116,1012
84.22221173,951
84.24847229,946
84.27473286,938
84.30099342,984
84.32725399,917
84.35351455,1012
84.37977512,986
84.40603568,955
84.43229625,964
84.45855681,956
84.48481738,932
84.51107794,950
84.53733851,1005
84.56359907,1020
84.58985964,967
84.6161202,1001
84.64238077,957
84.66864133,927
84.6949019,901
84.72116246,947
84.74742303,917
84.77368359,962
84.79994416,909
84.82620472,925
84.85246529,938
84.87872585,923
84.90498642,921
84.93124698,988
84.95750755,876
84.98376811,901
85.01002868,979
85.03628924,979
85.06254981,939
85.08881037,923
85.11507094,939
85.1413315,953
85.16759207,985
85.19385263,916
85.2201132,905
85.24637376,952
85.27263433,927
85.29889489,899
85.32515546,963
85.35141602,929
85.37767659,894
85.40393715,933
85.43019772,917
85.45645828,975
85.48271885,914
85.50897941,906
85.53523998,930
85.56150054,981
85.58776111,990
85.61402167,966
85.64028224,921
85.6665428,937
85.69280337,991
85.71906393,920
85.7453245,959
85.77158506,895
85.79784563,969
85.82410619,992
85.85036676,913
85.87662732,926
85.90288789,914
85.92914845,895
85.95540902,930
85.98166958,908
86.00793015,938
86.03419071,927
86.06045128,957
86.08671184,898
86.11297241,959
86.13923297,929
86.16549354,941
86.1917541,1005
86.21801467,970
86.24427523,1002
86.2705358,948
86.29679636,958
86.32305693,959
86.34931749,968
86.37557806,897
86.40183862,968
86.42809919,996
86.45435975,951
86.48062032,922
86.50688088,950
86.53314145,955
86.55940201,939
86.58566258,938
86.61192314,945
86.63818371,963
86.66444427,948
86.69070484,979
86.7169654,970
86.74322597,939
86.76948653,944
86.7957471,919
86.82200766,955
86.84826823,955
86.87452879,957
86.90078936,926
86.92704992,977
86.95331049,945
86.97957105,943
87.00583162,895
87.03209218,987
87.05835275,964
87.08461331,923
87.11087388,974
87.13713444,925
87.16339501,959
87.18965557,889
87.21591614,989
87.2421767,958
87.26843727,925
87.29469783,902
87.3209584,908
87.34721896,956
87.37347953,939
87.39974009,912
87.42600066,900
87.45226122,954
87.47852179,972
87.50478235,1003
87.53104292,933
87.55730348,981
87.58356405,970
87.60982461,939
87.63608518,911
87.66234574,995
87.68860631,990
87.71486687,920
87.74112744,988
87.767388,899
87.79364857,966
87.81990913,970
87.8461697,963
87.87243026,946
87.89869083,959
87.92495139,963
87.95121196,957
87.97747252,920
88.00373309,898
88.02999365,954
88.05625422,960
88.08251478,975
88.10877535,925
88.13503591,948
88.16129648,957
88.18755704,974
88.21381761,903
88.24007817,925
88.26633874,941
88.2925993,912
88.31885987,961
88.34512043,912
88.371381,963
88.39764156,926
88.42390213,949
88.45016269,954
88.47642326,946
88.50268382,915
88.52894439,994
88.55520495,911
88.58146552,955
88.60772609,917
88.63398665,918
88.66024722,988
88.68650778,982
88.71276835,940
88.73902891,1026
88.76528948,967
88.79155004,989
88.81781061,925
88.84407117,958
88.87033174,851
88.8965923,1031
88.92285287,962
88.94911343,931
88.975374,1008
89.00163456,933
89.02789513,932
89.05415569,928
89.08041626,957
89.10667682,955
89.13293739,976
89.15919795,945
89.18545852,936
89.21171908,923
89.23797965,990
89.26424021,968
89.29050078,984
89.31676134,987
89.34302191,927
89.36928247,967
89.39554304,1021
89.4218036,905
89.44806417,933
89.47432473,941
89.5005853,981
89.52684586,954
89.55310643,1006
89.57936699,1041
89.60562756,1013
89.63188812,972
89.65814869,978
89.68440925,959
89.71066982,992
89.73693038,973
89.76319095,967
89.78945151,1011
89.81571208,981
89.84197264,951
89.86823321,967
89.89449377,984
89.92075434,968
89.9470149,983
89.97327547,987
89.99953603,1010
